"Ekg"
968
875
898
929
960
867
914
968
960
867
890
914
898
828
890
984
976
914
968
960
921
882
937
960
882
898
953
976
937
984
1000
976
875
906
937
976
867
921
1000
882
843
851
882
820
859
898
898
804
843
898
882
835
867
914
828
828
890
937
859
867
890
898
843
851
906
906
835
859
906
882
789
796
859
929
953
1007
914
960
945
921
789
773
796
851
890
851
859
875
914
835
820
914
945
914
859
875
921
867
929
968
906
828
898
929
898
875
921
1007
882
859
812
804
843
875
867
859
828
796
726
703
695
734
765
789
734
718
765
789
812
820
734
718
726
750
726
703
687
671
679
750
718
687
710
718
742
765
742
828
859
867
796
796
796
828
882
828
757
742
804
796
804
820
804
773
718
687
703
734
773
757
750
1000
656
843
867
867
859
804
757
703
710
750
851
937
929
914
828
828
804
851
890
859
804
796
789
757
710
757
765
765
765
734
742
726
695
687
679
679
648
648
664
710
765
789
750
789
765
757
710
695
687
710
687
710
687
664
679
679
656
656
625
617
625
601
593
570
578
562
562
554
546
539
546
562
562
578
617
617
656
656
656
671
695
687
671
648
632
640
640
632
632
609
601
601
593
593
593
601
585
601
609
625
601
593
593
609
703
664
632
609
593
578
554
570
570
578
585
585
585
609
609
601
632
648
625
632
656
656
687
648
664
679
687
656
679
679
656
656
671
664
687
632
664
640
632
609
617
617
625
617
601
609
625
617
593
593
593
593
609
601
585
601
617
601
601
609
625
640
632
625
679
695
671
648
671
718
710
671
695
710
695
671
742
750
710
710
750
757
710
718
765
789
757
781
820
835
750
757
773
773
734
734
781
828
781
796
812
812
750
765
773
742
726
789
937
945
890
945
960
898
843
882
921
882
875
960
945
875
867
882
851
789
875
976
953
867
898
914
890
796
859
906
859
875
984
984
859
890
937
835
828
945
992
937
921
992
976
914
945
976
937
875
890
921
843
937
953
859
867
820
734
734
710
726
734
765
765
703
726
742
757
710
742
796
882
796
820
960
960
835
804
789
804
726
734
734
703
718
734
710
765
796
828
804
710
726
718
718
710
671
671
671
718
757
718
773
781
773
718
750
750
742
671
679
710
812
843
773
789
781
765
718
695
734
734
703
718
750
773
726
750
781
765
718
664
687
710
742
789
804
812
757
789
781
757
695
687
671
648
664
648
648
632
687
796
750
710
757
796
734
765
1000
218
992
898
867
750
687
648
625
625
632
640
625
648
679
773
757
757
796
796
789
734
773
843
867
882
835
898
914
898
835
921
875
976
960
890
812
812
828
820
742
757
750
828
789
781
875
875
828
781
812
789
789
757
828
890
875
781
820
835
812
765
796
812
851
781
789
835
859
828
843
882
867
812
843
867
898
820
820
875
945
828
789
796
789
789
750
804
867
945
867
835
835
828
789
765
820
968
929
835
781
765
742
750
734
710
726
757
765
765
718
750
710
1000
164
953
906
843
804
765
750
742
695
656
648
640
734
679
703
726
734
710
656
687
687
726
750
703
710
718
718
718
703
750
781
820
828
796
789
789
789
757
718
742
742
773
726
875
828
726
851
867
828
835
804
789
726
742
726
679
679
695
656
617
609
617
625
617
632
640
617
617
601
609
609
632
773
679
687
750
765
742
695
640
625
640
648
664
656
625
617
695
742
781
710
687
742
789
757
710
671
625
617
617
601
617
625
648
671
687
648
656
656
679
687
664
632
679
804
773
781
710
718
718
671
640
617
609
656
664
640
695
695
703
734
750
687
679
687
703
703
664
664
703
765
742
695
726
703
664
648
640
664
703
664
640
710
773
804
750
718
742
710
687
703
679
648
656
710
765
742
726
750
757
757
726
664
664
695
718
726
734
703
710
648
664
671
710
679
687
734
734
781
765
710
695
671
679
695
687
671
640
664
726
773
820
789
796
773
726
687
718
828
898
835
781
812
851
835
765
757
773
835
851
757
757
757
796
750
687
664
656
671
726
789
835
835
757
773
734
695
695
687
648
664
781
726
710
750
796
773
773
703
695
695
750
781
781
718
703
742
804
820
851
828
765
695
695
750
820
945
882
898
921
789
773
773
757
687
703
726
742
828
875
789
781
773
789
773
742
703
726
773
835
804
796
789
812
750
742
750
757
742
750
773
820
804
781
789
781
765
726
750
773
765
734
718
710
710
695
734
734
781
789
796
726
742
734
742
812
921
890
804
835
820
796
750
687
687
703
757
703
757
789
812
812
828
812
781
734
695
687
679
648
679
812
851
882
820
820
796
726
742
726
742
750
710
710
679
671
671
718
687
718
687
726
843
843
812
828
820
835
796
789
820
859
820
796
851
796
750
781
781
765
750
765
773
734
687
718
742
796
765
765
757
804
742
718
734
703
664
664
671
726
765
781
718
718
750
718
671
656
671
695
742
671
726
734
718
679
679
671
687
648
671
710
765
726
687
710
718
679
656
687
671
664
648
625
640
648
648
640
625
648
640
679
664
640
648
664
664
656
664
687
718
687
656
632
476
1000
226
937
843
742
710
679
648
625
640
656
687
679
679
718
734
726
671
703
757
742
718
765
804
789
757
781
812
820
765
796
835
882
789
820
812
742
734
734
742
695
703
726
718
804
843
812
757
750
773
765
695
757
796
828
757
773
804
750
1000
85
882
828
750
695
671
656
625
632
679
695
742
1000
93
968
929
851
828
789
695
664
640
640
625
617
625
640
679
695
664
703
773
835
789
773
789
843
851
804
796
789
710
679
671
671
671
640
664
703
671
679
695
710
703
664
656
671
679
671
664
671
679
687
664
687
710
718
679
664
671
687
687
648
656
648
640
648
625
625
656
664
679
656
656
687
687
648
664
687
679
664
648
632
664
687
687
679
710
742
750
687
687
703
742
718
695
703
734
703
671
664
664
664
656
625
640
664
710
742
703
734
757
773
703
710
710
1000
70
960
875
859
859
835
734
703
710
734
726
710
734
750
742
734
789
789
757
679
679
656
656
671
656
632
640
656
703
718
671
671
703
742
1000
62
968
890
851
882
843
773
695
710
734
773
750
757
835
906
773
781
812
804
726
742
757
812
765
789
796
804
773
742
757
742
734
679
632
656
648
656
640
640
695
742
765
734
695
695
687
648
648
687
640
656
664
687
718
687
679
726
773
718
679
679
671
664
632
609
625
781
789
796
796
812
781
734
726
718
757
742
796
820
796
812
789
750
703
695
703
726
718
734
757
773
734
734
703
687
648
640
648
632
609
609
617
632
617
703
718
687
718
687
671
632
632
617
632
632
625
609
609
617
640
640
664
679
679
640
625
625
625
617
664
695
718
695
718
718
687
640
648
625
617
609
609
617
632
671
695
726
734
710
734
687
656
625
617
617
617
601
609
648
679
656
640
656
671
648
664
671
687
687
687
671
664
632
640
625
609
609
593
609
609
617
617
609
664
671
664
664
695
726
687
710
703
695
664
656
664
664
671
640
648
664
656
687
710
710
671
656
640
648
648
632
625
640
671
671
632
648
640
656
609
609
625
671
664
656
718
734
687
703
679
648
632
640
640
625
609
609
640
648
687
679
687
679
679
632
625
632
632
617
625
617
734
718
734
796
773
750
734
726
718
671
664
679
687
648
656
648
679
726
664
640
656
625
648
617
625
632
664
640
664
695
718
679
703
710
710
640
648
671
695
687
640
625
617
601
632
703
703
742
812
843
773
757
804
843
742
796
859
851
843
875
843
726
710
664
710
835
851
804
750
726
734
671
648
664
648
640
632
625
656
671
703
679
679
687
804
750
796
796
750
695
671
632
609
601
570
578
585
625
656
710
671
671
695
703
765
726
710
820
828
757
742
765
742
664
679
687
687
718
671
687
710
757
703
726
742
726
679
679
679
664
664
695
742
742
773
757
773
710
671
671
687
703
695
679
718
742
781
742
718
757
765
687
687
679
664
648
632
632
656
648
617
632
640
640
625
632
632
625
609
601
656
781
843
804
921
953
867
851
851
859
765
781
796
835
757
765
804
820
757
781
789
812
757
796
812
804
734
726
726
734
734
695
726
742
773
742
726
773
765
765
687
679
679
664
617
617
601
609
625
601
585
585
585
570
562
578
609
687
773
773
757
679
687
687
664
648
671
695
710
648
625
625
671
679
695
656
687
710
703
656
687
679
664
648
656
664
664
625
640
648
625
640
664
687
671
734
750
726
671
656
656
632
609
625
625
640
648
648
687
726
679
703
726
726
671
671
695
726
656
703
789
796
726
703
679
679
640
632
632
640
632
648
687
742
710
765
789
757
734
781
789
734
726
765
828
812
773
820
835
812
773
835
843
781
804
820
828
796
828
843
835
781
781
828
882
812
835
843
796
789
828
867
796
812
828
835
750
773
718
796
898
859
796
757
718
687
695
718
710
679
656
656
679
687
687
750
812
796
773
773
789
734
718
726
726
750
726
710
765
812
750
804
781
742
781
765
742
710
718
703
671
687
703
710
679
695
703
734
703
671
687
679
687
671
679
679
695
679
695
710
718
687
687
671
656
703
773
757
796
781
781
765
750
695
664
656
656
656
734
734
773
820
804
750
734
765
835
882
890
828
851
898
921
937
875
820
882
968
906
937
960
890
804
820
914
960
906
835
859
812
859
875
742
703
726
757
851
804
734
757
820
851
828
742
734
742
695
695
867
898
914
867
781
703
687
710
757
710
796
742
726
656
656
687
726
710
671
671
671
695
726
687
703
718
718
695
656
648
648
718
703
656
671
671
671
656
671
695
718
726
718
726
742
773
773
726
703
695
710
671
664
687
710
726
664
664
687
781
875
835
875
914
875
828
757
765
843
882
898
828
843
820
835
820
742
812
882
890
867
757
773
835
796
765
710
734
804
804
765
710
687
687
718
820
812
750
789
851
851
882
773
750
765
781
820
750
750
773
804
695
664
656
617
617
593
593
585
601
578
601
609
617
609
601
593
625
609
609
578
578
570
890
765
734
664
656
656
664
679
742
742
773
750
703
687
703
718
750
695
726
781
812
789
718
695
687
695
695
679
671
679
656
687
757
710
710
781
789
734
710
640
640
625
617
617
609
617
632
820
859
921
914
859
867
882
890
890
835
867
867
960
914
921
875
757
718
695
679
656
632
625
625
609
625
664
710
750
804
781
726
710
679
679
679
656
687
750
750
679
710
718
695
648
664
679
671
640
664
664
687
679
648
695
710
671
648
648
656
656
625
632
640
648
664
687
695
687
664
617
625
640
679
695
695
726
765
718
734
718
726
718
679
687
671
695
710
773
742
765
781
765
695
679
664
664
640
625
632
632
640
656
656
687
656
671
671
703
687
726
671
679
718
750
742
757
773
812
820
734
812
835
726
789
796
820
718
796
742
773
804
867
890
765
757
750
781
851
835
765
804
875
898
890
843
820
804
718
742
812
960
882
937
781
765
828
851
882
804
757
804
828
875
757
835
875
906
906
781
750
742
710
710
835
929
914
882
835
750
718
796
921
921
882
929
937
812
773
804
867
851
804
789
812
875
820
804
820
882
890
843
781
812
851
921
882
835
851
875
828
750
789
882
820
875
906
851
804
843
890
851
804
835
859
773
789
851
882
789
812
828
781
796
804
835
804
804
796
812
812
750
773
828
890
890
843
851
867
835
789
835
796
851
890
890
843
765
703
679
750
757
710
695
710
671
726
804
750
718
726
757
765
781
742
804
875
914
828
859
875
898
828
804
820
859
781
765
851
929
953
843
835
812
804
742
757
804
898
851
859
906
914
828
789
804
812
804
742
765
835
875
828
851
875
882
835
789
812
820
835
781
781
859
914
890
835
843
898
890
820
828
820
835
726
757
820
835
750
726
742
734
710
718
726
742
750
710
734
757
789
781
734
742
742
789
835
757
796
804
828
812
757
804
820
789
742
750
781
804
812
742
765
773
781
750
710
750
781
812
796
742
773
796
812
757
742
710
687
703
734
757
820
875
882
828
804
812
789
710
726
820
882
812
789
843
835
757
757
765
781
734
765
812
843
750
757
773
773
734
789
843
875
843
781
796
796
789
757
765
781
835
835
789
820
835
828
765
796
789
804
820
765
796
804
843
789
796
851
859
835
734
726
742
773
796
726
734
773
804
773
757
804
835
843
781
796
796
765
703
734
765
796
734
796
859
906
859
781
789
796
820
796
828
875
867
750
710
671
734
859
851
765
812
851
867
812
859
875
875
804
835
851
867
828
820
859
890
867
781
828
859
882
843
859
898
906
867
882
898
882
796
812
835
890
859
867
898
890
781
796
820
843
765
796
828
851
828
781
804
828
820
781
750
796
851
898
882
804
812
796
750
726
757
789
804
757
773
781
796
820
765
796
828
867
828
804
828
859
859
773
851
867
875
773
773
773
796
773
875
914
914
835
867
890
875
898
882
742
734
718
687
648
625
617
609
609
609
609
609
585
585
585
593
601
585
585
593
632
609
617
687
765
726
765
781
750
695
671
648
625
632
625
609
609
609
609
617
632
640
632
609
625
625
609
632
640
734
734
656
765
789
750
718
710
687
664
664
648
640
640
625
632
656
718
773
765
726
718
718
710
695
687
679
671
656
656
656
664
703
742
750
773
789
757
718
703
703
695
664
687
664
656
671
664
664
664
648
632
617
609
609
601
632
617
625
656
671
671
718
757
757
703
710
703
703
718
718
750
750
757
765
734
710
726
734
718
710
656
750
726
703
679
640
656
632
632
617
601
593
593
617
671
679
703
703
679
726
742
726
765
781
812
773
804
812
796
781
734
757
820
859
773
781
781
828
851
835
742
742
742
750
710
750
765
757
750
773
812
796
789
750
718
703
710
742
773
742
734
789
828
820
820
820
773
734
726
757
757
757
703
695
695
726
757
757
703
703
718
718
734
703
718
726
734
703
742
773
789
781
742
703
718
703
703
695
679
664
671
726
742
804
804
718
734
765
718
750
726
734
710
695
679
664
640
632
640
679
710
656
687
726
757
820
812
796
734
710
726
734
703
703
757
835
812
765
718
679
718
718
734
671
687
710
726
718
687
679
695
726
734
734
687
695
703
679
726
757
726
773
710
789
875
804
820
804
757
695
664
671
726
781
742
828
875
796
796
796
726
687
679
664
640
640
609
609
625
617
632
640
648
656
640
648
671
671
695
710
679
671
679
695
679
679
656
617
601
578
578
601
585
601
632
625
640
632
609
609
593
601
640
640
632
648
671
640
640
671
671
632
640
632
625
609
617
601
617
632
632
656
625
648
664
656
632
617
625
617
632
632
710
882
929
906
835
804
843
742
687
625
585
585
570
578
617
625
617
609
609
585
601
640
632
640
679
679
648
632
648
679
687
656
671
734
773
710
695
703
695
664
656
648
640
632
625
632
632
640
632
640
671
664
648
671
687
671
648
671
679
632
632
640
656
625
632
632
617
601
601
617
648
703
640
671
695
703
703
742
757
750
687
695
679
679
648
664
679
710
671
656
687
679
859
890
812
789
781
773
703
750
796
875
804
789
851
882
851
804
851
937
875
750
796
812
851
765
828
765
703
687
703
679
687
875
773
812
890
921
859
898
867
820
835
851
781
750
773
851
867
812
796
867
773
812
875
898
898
796
773
773
812
867
835
921
937
921
851
882
804
906
921
898
898
859
781
812
929
914
945
937
875
781
773
820
953
960
953
875
921
929
968
976
882
929
945
898
867
968
1023
953
859
851
867
898
835
882
945
945
851
875
906
898
828
859
921
953
851
898
921
875
882
875
867
789
820
882
968
914
945
960
953
851
921
914
890
828
867
937
898
867
921
937
867
835
828
859
835
835
921
929
867
875
906
906
851
859
890
921
820
828
882
875
820
859
882
890
835
859
890
859
843
921
921
812
796
773
781
742
710
757
796
851
796
828
890
828
804
804
867
859
835
773
781
765
789
859
937
812
812
828
828
750
781
812
859
828
757
820
851
890
906
835
875
875
898
867
804
804
851
945
890
812
742
742
781
859
875
812
781
796
851
757
851
929
937
906
843
750
710
796
851
867
828
820
765
781
742
757
828
851
867
859
796
828
835
914
921
945
984
968
945
984
984
960
898
914
890
875
890
875
835
906
960
921
859
882
890
804
765
835
914
867
929
960
890
859
914
945
867
867
882
890
820
875
929
937
835
929
976
929
906
765
757
796
859
937
929
843
812
882
820
843
875
882
867
804
726
742
765
835
906
929
914
875
843
828
828
765
742
835
906
890
921
929
929
851
875
898
898
859
937
945
929
867
867
906
929
875
914
960
921
859
921
945
859
914
921
898
828
843
859
757
781
812
789
765
773
796
765
742
773
796
820
796
835
898
921
843
859
929
937
867
898
921
906
843
882
937
953
898
937
960
914
843
882
898
875
867
898
914
843
898
945
914
828
890
914
890
859
882
882
835
843
882
898
828
859
867
828
820
867
882
828
835
875
875
796
812
828
851
820
820
851
859
820
820
843
820
820
859
859
796
851
898
835
789
812
859
843
789
875
898
812
851
882
835
835
867
781
804
820
750
820
835
835
828
820
734
757
804
843
867
843
804
757
812
781
820
851
812
835
835
828
796
796
757
773
781
757
796
835
757
710
757
859
875
875
773
750
750
703
750
796
757
796
796
820
812
789
742
718
773
890
890
820
867
929
929
890
789
757
773
828
898
914
867
914
945
843
875
953
929
820
781
828
875
914
906
921
851
867
875
820
773
835
796
828
882
906
828
875
859
828
734
726
750
781
789
773
765
750
773
750
765
765
734
734
718
656
679
640
625
601
617
601
593
601
593
578
585
570
585
617
617
632
625
609
601
648
640
664
750
773
750
703
671
632
750
796
750
710
671
656
617
617
617
609
593
593
585
570
578
570
570
578
601
593
585
578
570
554
562
562
554
546
546
554
546
539
554
546
546
554
562
554
546
539
539
539
539
539
531
539
546
554
539
539
539
539
539
546
539
546
554
546
539
546
539
539
523
523
523
531
539
585
585
578
593
609
601
593
593
601
609
609
593
609
609
601
601
617
617
609
617
601
625
609
632
648
679
640
656
648
640
617
632
632
640
632
703
710
671
703
671
648
625
625
625
632
632
656
648
625
640
656
679
671
695
703
710
664
687
695
695
679
679
687
726
710
710
710
734
773
765
781
773
687
703
664
726
812
835
789
726
671
703
679
703
757
757
726
765
898
960
937
914
851
765
695
718
804
843
906
921
921
781
765
812
867
875
851
843
835
757
750
867
875
890
945
960
898
828
710
703
695
695
656
671
812
914
898
804
851
765
820
835
843
820
789
742
710
664
703
789
789
804
867
921
812
828
796
750
726
734
742
734
687
726
695
710
687
687
687
695
671
726
710
671
703
671
664
640
640
625
656
671
703
679
703
687
710
679
664
640
648
664
656
656
625
632
632
632
632
632
640
617
617
601
625
609
632
664
687
664
695
695
671
671
671
671
664
648
632
625
632
640
632
640
664
664
640
648
632
648
625
617
601
593
585
578
593
609
617
617
617
632
625
617
609
617
617
601
609
617
601
617
609
601
625
671
640
640
648
632
617
632
640
687
656
679
671
664
679
671
726
703
687
679
656
640
625
609
593
585
593
625
718
695
710
750
851
765
789
835
835
867
757
742
757
820
812
820
914
1000
890
851
906
890
851
757
734
734
750
734
781
828
867
796
812
867
859
828
726
765
804
859
812
945
984
929
976
968
906
960
992
898
953
890
812
804
812
789
757
867
921
875
828
906
937
875
859
929
960
898
937
1000
960
851
890
890
804
835
867
906
921
921
851
750
750
804
867
812
882
937
945
929
859
773
804
859
906
890
859
734
726
781
921
914
843
898
906
906
859
906
906
937
867
882
929
875
812
734
750
1000
7
937
968
984
960
898
960
992
929
843
968
968
875
914
921
812
914
898
906
875
750
750
742
812
820
765
718
765
859
882
875
835
742
718
726
804
898
875
781
835
976
984
937
890
937
921
914
851
828
867
914
953
953
921
835
843
843
882
929
921
875
867
867
882
875
757
781
820
867
890
867
789
851
898
914
921
820
859
882
898
882
796
742
828
929
945
937
843
890
898
921
867
867
898
914
890
843
781
828
796
687
734
695
617
679
648
625
648
648
632
625
617
601
632
664
664
640
640
679
671
625
617
656
710
695
679
710
773
796
804
789
781
781
804
859
867
851
781
812
843
851
843
789
789
773
765
757
757
742
742
726
765
789
773
781
734
742
742
773
781
765
710
726
726
726
726
718
726
703
671
679
664
656
640
679
804
820
843
859
843
835
773
742
734
703
734
718
679
671
640
632
609
593
570
570
570
554
562
570
570
585
601
609
664
679
648
664
671
687
687
656
656
656
640
632
617
625
609
593
609
609
609
617
593
601
593
593
585
601
609
601
593
593
585
585
609
609
617
617
632
640
671
671
679
671
687
679
664
640
640
664
687
718
703
742
796
773
781
726
710
718
750
726
718
781
804
781
734
757
726
703
640
648
625
617
679
812
789
898
898
890
812
765
765
757
726
718
750
859
804
843
828
781
734
742
750
742
710
750
750
750
757
789
812
742
765
765
765
750
773
796
765
765
828
812
773
757
781
828
859
812
804
843
875
820
796
812
828
765
742
750
796
828
828
789
859
867
875
773
781
804
828
820
929
984
929
882
890
882
796
835
820
796
843
914
929
859
875
867
835
781
773
789
734
820
820
882
914
882
796
804
812
781
734
765
812
882
835
945
937
851
820
843
828
773
820
851
828
804
835
851
812
875
945
851
812
898
882
820
867
867
851
804
867
921
843
867
875
859
789
828
867
851
796
882
914
843
820
828
812
773
820
835
890
843
898
929
906
851
875
921
843
820
820
828
781
781
820
820
804
804
835
851
820
835
867
882
789
828
867
851
796
804
828
812
781
750
726
703
757
851
820
906
921
843
843
796
781
726
765
820
812
804
835
843
773
796
828
820
773
820
859
789
781
828
835
773
796
804
781
742
796
828
789
796
781
773
742
773
773
750
781
804
828
765
789
750
750
765
734
703
742
789
851
789
843
890
898
835
843
843
828
781
773
812
867
828
859
859
781
757
773
804
796
750
796
867
890
820
859
835
820
765
789
796
812
781
820
828
843
773
828
812
789
765
789
812
773
757
796
835
812
828
875
867
789
812
773
757
726
750
757
742
710
750
804
812
765
820
859
882
781
835
859
812
765
757
773
734
781
804
804
820
882
898
812
875
875
820
765
773
812
773
757
843
906
898
843
875
859
804
789
773
789
757
773
820
875
812
859
890
875
820
890
921
875
890
953
953
859
851
843
781
765
820
796
812
820
789
820
843
835
812
750
773
835
898
820
851
898
921
859
851
867
859
773
781
742
742
718
804
820
828
867
859
820
789
835
921
914
921
937
921
843
882
906
835
843
851
882
820
851
875
890
828
898
945
875
867
867
820
750
812
820
796
765
812
835
796
773
796
804
796
773
812
820
804
828
835
828
773
789
796
765
757
796
820
796
812
820
789
750
742
812
765
773
781
750
773
796
789
757
742
765
789
765
757
781
804
773
773
781
789
765
773
835
828
757
789
781
742
781
781
757
718
742
789
796
804
890
953
882
945
960
867
789
796
765
718
734
765
796
765
789
820
789
773
781
804
773
789
828
843
789
867
906
898
914
921
835
812
828
750
773
789
804
789
796
835
835
812
812
859
820
804
726
742
789
843
843
828
828
843
781
789
781
750
742
742
773
781
812
851
851
796
828
835
804
781
820
796
765
750
765
789
765
742
750
765
781
804
820
851
781
804
789
789
726
757
773
765
765
820
898
867
820
859
898
843
789
828
867
812
820
867
929
859
828
750
765
921
859
882
882
859
789
875
898
867
781
835
875
898
828
859
898
859
835
890
921
867
867
875
875
812
867
898
859
867
906
914
820
851
859
820
851
867
906
843
875
898
796
804
835
875
812
812
796
789
757
781
804
812
789
851
875
859
820
828
820
859
804
843
890
898
851
875
890
867
812
828
882
898
851
906
914
875
796
828
828
804
781
828
859
804
820
820
843
804
789
851
835
851
796
812
843
828
781
812
859
851
796
835
898
890
828
820
828
859
867
820
820
820
835
820
742
734
765
781
773
812
835
828
812
796
820
781
820
843
859
859
781
726
726
796
890
890
851
882
890
898
882
812
765
789
828
867
867
828
882
921
929
914
875
867
835
843
828
835
828
835
898
921
937
867
851
843
812
796
828
859
843
789
812
867
804
812
851
804
781
726
726
765
789
796
796
726
742
750
773
812
757
757
750
804
875
882
828
765
757
781
804
820
835
796
726
695
671
734
875
828
812
851
867
867
828
796
765
742
734
804
882
914
921
851
851
835
828
781
781
781
828
835
765
812
914
937
882
867
906
867
804
851
843
843
781
812
828
851
828
859
882
820
859
875
890
820
867
882
867
859
914
898
835
812
828
843
812
781
796
804
796
765
812
828
835
812
835
851
859
828
843
875
882
835
867
875
859
773
789
835
828
773
804
828
781
750
750
742
718
687
726
851
843
804
828
812
789
757
804
796
765
765
757
750
710
726
750
718
718
726
757
773
765
773
773
781
750
718
765
773
773
750
789
851
859
812
843
867
851
789
812
828
820
812
812
781
796
820
820
765
789
781
796
765
781
835
835
796
820
828
765
789
828
820
796
796
804
781
765
757
781
804
750
742
750
750
734
742
757
781
734
757
757
718
750
750
750
734
703
742
781
781
820
820
843
851
921
851
882
843
781
781
843
921
867
835
828
812
796
812
804
804
796
867
921
882
867
867
835
789
804
843
859
835
875
929
882
820
835
835
851
804
812
875
898
843
820
859
851
812
835
882
867
812
828
835
773
750
812
750
796
812
789
734
750
726
718
671
695
687
664
664
703
710
726
757
773
773
757
796
835
867
843
835
875
843
867
867
828
773
812
835
789
726
742
742
742
703
718
773
789
773
781
828
851
796
843
851
781
796
781
734
695
703
718
703
742
820
898
906
843
843
828
820
820
781
726
757
757
757
765
765
757
789
773
804
781
843
843
820
789
820
843
835
789
820
812
773
796
820
750
726
820
804
804
789
742
742
750
750
703
718
757
726
781
828
851
882
875
882
796
789
820
828
765
789
812
859
882
781
812
835
789
828
828
804
742
726
765
765
718
750
820
843
906
1000
7
960
867
859
820
828
820
742
781
828
820
835
898
875
812
804
796
757
734
734
734
718
765
773
781
757
820
867
812
820
812
820
750
757
804
859
820
875
875
804
843
843
851
812
820
898
906
828
835
859
789
796
812
804
765
781
773
750
726
804
843
828
789
835
843
789
757
773
796
796
773
828
820
828
757
742
804
804
789
742
765
750
710
710
703
710
734
703
718
750
726
734
773
718
703
695
710
687
703
710
718
718
710
742
750
742
734
703
687
656
664
679
734
765
765
718
734
726
695
726
742
781
765
718
718
710
695
664
687
734
773
804
804
750
757
742
726
710
679
679
656
640
687
773
734
734
734
734
718
671
656
648
656
687
679
695
718
796
812
773
726
796
789
742
710
656
664
664
703
671
687
734
742
726
695
703
726
742
742
726
804
851
765
695
710
1000
929
898
796
781
781
773
812
804
820
867
898
906
828
914
960
929
812
859
882
867
804
734
750
789
781
929
1000
914
921
875
781
757
757
742
710
726
789
921
992
882
859
914
906
812
843
796
726
750
796
898
859
812
882
898
812
835
875
898
843
968
1031
1015
929
1015
1015
929
945
1007
1015
992
937
1000
1023
953
984
992
992
937
992
1039
984
984
1031
1015
953
984
1007
1015
945
1000
1039
1007
921
984
1007
953
1015
1054
976
992
992
898
789
742
742
1000
906
835
921
976
914
968
984
968
914
1007
1000
960
1007
1031
1054
976
1039
1054
976
914
968
867
757
773
859
976
914
929
960
992
968
875
960
1039
1039
953
1031
1039
953
1023
1007
906
843
851
843
843
976
953
875
851
906
898
835
875
937
867
921
968
929
937
992
945
914
906
898
812
843
976
1007
914
992
1023
976
937
984
976
859
921
914
898
921
992
960
882
945
976
898
906
921
929
851
929
921
867
898
937
890
890
929
937
875
929
945
890
882
960
976
906
953
968
937
937
984
992
937
1007
992
882
875
976
1007
929
960
1023
1031
906
960
929
828
804
914
937
851
890
906
890
812
921
984
976
851
906
929
859
945
1062
992
929
992
992
898
929
992
1031
937
1007
1015
968
906
968
992
937
1007
1046
992
953
984
1000
906
953
1000
968
914
1007
1015
929
968
992
914
890
906
929
835
898
929
859
867
921
960
890
976
1031
1000
953
984
1000
960
890
921
992
1000
929
1015
1039
984
937
992
953
851
843
898
945
843
906
945
828
921
953
914
828
890
914
890
828
898
937
875
945
976
898
890
929
937
875
937
960
921
898
953
953
882
937
937
890
882
898
906
851
843
781
906
851
851
781
812
867
835
929
953
875
875
968
976
875
968
1023
914
945
1000
1007
898
976
992
914
953
960
914
968
992
945
953
992
921
937
984
984
882
960
984
906
960
968
890
968
1023
960
890
960
828
906
953
953
929
820
820
820
781
734
789
835
820
875
968
992
914
960
945
859
882
914
867
875
914
945
875
921
921
875
843
882
890
835
945
914
812
812
843
851
781
812
835
835
781
828
875
820
804
851
898
859
882
921
914
804
851
859
851
851
960
1007
937
960
984
945
851
929
1000
1000
898
1015
1023
1007
914
960
976
953
882
945
960
968
890
937
953
929
843
875
898
929
867
992
984
890
882
875
828
765
789
859
937
875
875
953
984
890
937
984
890
835
765
750
921
843
890
968
882
921
898
828
835
906
898
828
812
867
898
960
992
953
843
859
882
906
820
867
882
921
843
890
921
929
820
859
898
859
914
914
898
796
781
789
828
875
804
851
937
929
820
851
859
906
882
820
835
843
804
828
898
968
906
921
937
898
843
851
851
851
796
875
953
992
929
968
960
968
914
953
968
1000
906
960
960
960
914
960
976
875
914
921
906
859
898
898
875
859
929
960
914
851
929
921
859
859
851
867
835
820
828
828
773
757
765
773
820
812
773
812
890
898
843
851
843
789
718
687
1000
125
1000
31
968
929
898
804
726
734
742
750
765
796
828
812
750
710
687
664
656
664
726
726
726
750
789
750
718
734
703
679
664
640
625
601
585
601
578
578
578
585
585
664
687
671
664
710
695
718
718
710
710
687
671
671
664
656
648
687
648
648
632
617
601
593
585
585
585
585
578
570
562
570
578
570
578
585
585
593
601
617
632
632
632
632
640
617
609
617
593
585
578
578
562
570
554
546
562
562
570
593
664
671
765
703
742
734
734
703
648
632
617
625
648
687
703
726
718
687
710
750
742
710
710
695
687
671
687
671
656
632
632
632
664
648
703
757
750
750
843
859
859
796
765
804
820
789
929
992
976
968
789
765
828
757
710
679
664
656
703
664
765
843
859
789
757
804
859
890
828
906
1000
46
937
906
953
1007
921
968
1000
953
835
1078
1101
1023
1023
976
875
906
906
929
882
898
898
914
890
875
984
1015
953
867
835
796
718
695
671
664
679
695
695
703
679
687
765
992
890
937
1000
859
851
953
937
890
796
765
718
804
835
898
921
906
781
820
835
828
789
742
750
773
812
851
757
757
757
757
710
710
703
710
679
695
695
710
742
750
750
703
726
726
851
906
953
921
859
757
726
695
703
898
921
820
828
820
804
765
718
718
703
734
789
835
750
804
937
976
1000
31
992
882
882
921
804
742
765
812
765
812
820
804
789
773
718
679
648
710
867
835
921
882
789
781
765
742
695
687
679
664
687
648
679
656
648
656
703
703
734
789
757
718
703
679
664
632
625
617
609
593
609
609
593
609
625
625
625
609
601
640
648
625
617
625
601
601
601
593
585
585
578
585
617
601
601
609
609
617
625
617
609
609
609
593
601
609
593
578
585
578
562
570
578
562
554
562
585
656
632
648
640
632
648
679
664
656
625
625
625
609
609
593
593
601
632
617
648
632
664
632
648
671
664
687
679
679
664
632
687
679
656
640
656
632
718
757
726
703
687
703
640
726
757
750
742
710
718
726
703
687
687
695
851
953
976
843
757
867
1000
960
812
734
687
671
656
679
671
656
617
625
609
601
609
609
601
585
601
609
609
640
687
710
726
734
859
921
921
960
906
898
898
828
867
914
906
804
765
742
695
656
640
648
671
703
820
992
1000
984
1000
976
914
820
835
898
835
914
968
921
843
867
859
781
820
914
945
921
742
757
734
718
750
726
773
781
734
773
828
898
953
882
882
914
937
882
875
789
882
914
820
898
929
828
742
757
765
765
835
937
976
890
843
859
867
906
937
914
851
734
734
695
664
671
671
664
679
695
859
750
703
703
687
656
648
640
632
648
640
656
671
695
710
718
718
703
718
757
734
664
734
789
718
726
664
695
664
687
703
671
679
664
687
679
648
687
648
640
632
609
617
601
601
585
617
617
601
625
640
679
710
656
640
632
781
828
796
781
703
718
679
648
632
609
593
585
617
632
679
710
710
695
710
734
765
781
718
703
640
914
906
898
867
835
757
703
679
664
656
695
867
804
796
851
890
890
804
796
789
820
789
804
921
968
898
835
898
937
914
851
929
968
945
898
968
945
882
875
953
968
890
960
1007
875
882
968
914
859
914
890
789
898
976
929
796
789
750
812
1000
39
898
937
1000
1000
882
890
937
1007
960
1023
1039
953
929
1000
1023
960
1000
1046
1031
945
992
1031
1000
875
921
976
1054
960
1054
1039
1000
906
1007
1015
945
851
929
1023
992
929
1031
1023
953
882
976
984
929
1015
1062
960
921
968
953
804
796
742
875
1000
85
976
1031
1023
1015
953
1015
1007
921
890
945
1023
1015
976
1070
1078
945
984
1000
976
921
1031
1070
960
929
968
984
937
976
1007
906
984
1015
953
867
882
906
890
820
843
789
734
828
867
851
968
992
929
875
906
929
875
835
914
953
921
859
921
984
953
882
968
992
953
867
945
968
960
898
1000
1007
945
890
906
968
921
875
1000
1046
992
960
1015
1023
945
945
992
937
882
968
1031
1031
968
1046
1015
953
875
867
835
781
937
882
1000
85
1101
1000
984
1031
1007
921
968
1031
1007
929
1015
1046
953
984
1054
1023
953
1039
1062
929
937
984
937
898
1078
1062
992
945
960
1007
937
945
1031
1031
976
976
1054
1039
929
968
968
921
890
1023
1039
992
976
1054
1046
953
968
1023
1007
921
867
867
882
835
851
843
796
734
750
726
734
796
851
882
828
804
828
843
914
867
859
960
1046
1000
906
968
1023
1039
968
1031
1054
1015
937
1046
1062
1015
953
1031
1046
976
1000
1023
929
820
835
882
804
828
1000
54
1039
914
937
960
968
929
984
1015
992
898
960
992
984
906
929
960
1015
960
1015
1031
1000
960
992
1039
1039
929
1000
1015
968
921
984
1046
1031
898
968
992
984
906
976
1031
1000
882
906
914
937
890
1046
1101
1062
968
1015
984
1007
906
937
968
1007
968
914
968
992
929
851
851
929
937
882
960
1054
968
859
898
960
937
851
867
859
789
757
804
804
992
976
875
898
1000
93
945
820
703
914
789
734
710
648
648
617
593
593
585
585
570
578
593
609
640
664
671
765
804
867
859
906
937
953
890
929
921
906
875
1000
109
1039
992
1007
968
968
906
906
929
984
945
992
992
953
937
992
1007
968
929
960
921
921
812
875
921
1000
984
835
781
804
859
882
859
851
781
734
750
734
703
710
757
890
906
835
921
953
992
890
898
937
1046
945
1007
1070
1031
882
921
945
929
820
898
1023
984
828
875
937
843
820
875
945
851
890
882
906
820
843
859
882
820
718
726
695
679
718
664
664
671
648
640
625
625
617
617
609
609
609
640
671
679
742
820
898
867
812
945
992
875
835
1000
1070
1031
914
890
906
945
835
710
867
796
789
765
726
726
742
726
773
851
898
820
781
796
828
859
828
921
906
835
796
812
882
835
820
968
1000
46
992
882
890
898
796
765
851
1000
31
1039
937
976
992
1000
882
820
851
890
828
882
1000
148
1085
984
1023
1015
968
906
937
953
960
960
1062
1101
1054
976
1015
1007
953
851
835
945
968
898
984
1039
976
890
906
945
906
851
875
968
976
882
945
968
914
828
875
968
1015
929
953
968
992
890
906
968
976
867
867
937
1007
890
851
898
1046
937
929
1015
1031
882
929
1000
960
835
914
1085
1023
914
1007
1062
992
890
1000
1031
1023
890
960
1000
906
898
1101
1101
1000
1007
1039
1015
960
1015
1039
1000
867
843
773
710
750
804
765
851
976
1000
945
929
929
820
742
796
976
914
1000
109
1093
1015
